freq,vout,errv
500,8.2,0.4
550,7,0.4
575,6,0.4
600,4.8,0.16
625,3.6,0.16
650,2,0.16
660,1.04,0.08
665,0.8,0.08
670,0.6,0.08
675,0.5,0.08
680,0.6,0.08
685,0.76,0.08
690,1.04,0.08
700,1.6,0.08
725,2.96,0.16
750,4.08,0.16
800,6.08,0.4
850,7.6,0.4
900,8.4,0.4
